# GNUBANDS: Utility for SIESTA to transform bands output into Gnuplot format
#
#                                                  Emilio Artacho, Feb. 1999
#                                                   Alberto Garcia, May 2012
#                                         Nick Papior, April 2013, July 2016
# --------------------------------------------------------------------------
# Bands for all spins
# E_F / orig        =      0.0000    -4.3836
# k_min, k_max      =     0.0000    1.3111
# E_min, E_max      =   -15.0000   15.0000
# Nbands, Nspin, Nk =     26     2   106
# Using min_band, max_band =      1    26
# Total number of bands =     26
#
#        k            E[eV]
# --------------------------------------------------------------------------

      0.000000    -12.199314  1
      0.013712    -12.197314  1
      0.027423    -12.191314  1
      0.041135    -12.181114  1
      0.054847    -12.166314  1
      0.068559    -12.146914  1
      0.082270    -12.122914  1
      0.095982    -12.094214  1
      0.109694    -12.060914  1
      0.123406    -12.022914  1
      0.137117    -11.980414  1
      0.150829    -11.933414  1
      0.164541    -11.881814  1
      0.178252    -11.825914  1
      0.191964    -11.765614  1
      0.205676    -11.701014  1
      0.219388    -11.632214  1
      0.233099    -11.559314  1
      0.246811    -11.482414  1
      0.260523    -11.401714  1
      0.274235    -11.317314  1
      0.287946    -11.229514  1
      0.301658    -11.138514  1
      0.315370    -11.044714  1
      0.329081    -10.948314  1
      0.342793    -10.850114  1
      0.356505    -10.750514  1
      0.370217    -10.650614  1
      0.383928    -10.551614  1
      0.397640    -10.455014  1
      0.411352    -10.363214  1
      0.425064    -10.279014  1
      0.438775    -10.206214  1
      0.452487    -10.149114  1
      0.466199    -10.112514  1
      0.479910    -10.099814  1
      0.487827    -10.099014  1
      0.495743    -10.096514  1
      0.503660    -10.092314  1
      0.511576    -10.086514  1
      0.519493    -10.079014  1
      0.527409    -10.069814  1
      0.535326    -10.059014  1
      0.543242    -10.046414  1
      0.551159    -10.032314  1
      0.559075    -10.016414  1
      0.566992     -9.998914  1
      0.574908     -9.979714  1
      0.582824     -9.958914  1
      0.590741     -9.936314  1
      0.598657     -9.912114  1
      0.606574     -9.886214  1
      0.614490     -9.858614  1
      0.622407     -9.829414  1
      0.630323     -9.798414  1
      0.638240     -9.765814  1
      0.646156     -9.731514  1
      0.654073     -9.695514  1
      0.661989     -9.657814  1
      0.669906     -9.618414  1
      0.677822     -9.577414  1
      0.685738     -9.534614  1
      0.693655     -9.490214  1
      0.701571     -9.444014  1
      0.709488     -9.396214  1
      0.717404     -9.346714  1
      0.725321     -9.295514  1
      0.733237     -9.242614  1
      0.741154     -9.188014  1
      0.749070     -9.131714  1
      0.756987     -9.075814  1
      0.772820     -9.196514  1
      0.788652     -9.323314  1
      0.804485     -9.454714  1
      0.820318     -9.589514  1
      0.836151     -9.726414  1
      0.851984     -9.864414  1
      0.867817    -10.002414  1
      0.883650    -10.139714  1
      0.899483    -10.275414  1
      0.915316    -10.409014  1
      0.931149    -10.539814  1
      0.946982    -10.667414  1
      0.962815    -10.791414  1
      0.978648    -10.911414  1
      0.994481    -11.027214  1
      1.010313    -11.138514  1
      1.026146    -11.245014  1
      1.041979    -11.346514  1
      1.057812    -11.443014  1
      1.073645    -11.534114  1
      1.089478    -11.619814  1
      1.105311    -11.699914  1
      1.121144    -11.774414  1
      1.136977    -11.843014  1
      1.152810    -11.905814  1
      1.168643    -11.962514  1
      1.184476    -12.013314  1
      1.200309    -12.057914  1
      1.216142    -12.096514  1
      1.231975    -12.128814  1
      1.247807    -12.154914  1
      1.263640    -12.174814  1
      1.279473    -12.188614  1
      1.295306    -12.196714  1
      1.311139    -12.199314  1


      0.000000     -3.158114  1
      0.013712     -3.155714  1
      0.027423     -3.148714  1
      0.041135     -3.137014  1
      0.054847     -3.120614  1
      0.068559     -3.099614  1
      0.082270     -3.073914  1
      0.095982     -3.043614  1
      0.109694     -3.233914  1
      0.123406     -3.479714  1
      0.137117     -3.725914  1
      0.150829     -3.971614  1
      0.164541     -4.216014  1
      0.178252     -4.458614  1
      0.191964     -4.698914  1
      0.205676     -4.936614  1
      0.219388     -5.171114  1
      0.233099     -5.402314  1
      0.246811     -5.629814  1
      0.260523     -5.853314  1
      0.274235     -6.072414  1
      0.287946     -6.286914  1
      0.301658     -6.496314  1
      0.315370     -6.700214  1
      0.329081     -6.898214  1
      0.342793     -7.089614  1
      0.356505     -7.273614  1
      0.370217     -7.449314  1
      0.383928     -7.615414  1
      0.397640     -7.770114  1
      0.411352     -7.911314  1
      0.425064     -8.035914  1
      0.438775     -8.140214  1
      0.452487     -8.219714  1
      0.466199     -8.269914  1
      0.479910     -8.287114  1
      0.487827     -8.287314  1
      0.495743     -8.288114  1
      0.503660     -8.289314  1
      0.511576     -8.291014  1
      0.519493     -8.293314  1
      0.527409     -8.296314  1
      0.535326     -8.299814  1
      0.543242     -8.304214  1
      0.551159     -8.309314  1
      0.559075     -8.315314  1
      0.566992     -8.322314  1
      0.574908     -8.330414  1
      0.582824     -8.339714  1
      0.590741     -8.350414  1
      0.598657     -8.362514  1
      0.606574     -8.376214  1
      0.614490     -8.391614  1
      0.622407     -8.408914  1
      0.630323     -8.428214  1
      0.638240     -8.449614  1
      0.646156     -8.473314  1
      0.654073     -8.499314  1
      0.661989     -8.527814  1
      0.669906     -8.558814  1
      0.677822     -8.592514  1
      0.685738     -8.628814  1
      0.693655     -8.667714  1
      0.701571     -8.709314  1
      0.709488     -8.753514  1
      0.717404     -8.800314  1
      0.725321     -8.849614  1
      0.733237     -8.901214  1
      0.741154     -8.955114  1
      0.749070     -9.011114  1
      0.756987     -9.067114  1
      0.772820     -8.945914  1
      0.788652     -8.818014  1
      0.804485     -8.683314  1
      0.820318     -8.541814  1
      0.836151     -8.393514  1
      0.851984     -8.238514  1
      0.867817     -8.076614  1
      0.883650     -7.908014  1
      0.899483     -7.732714  1
      0.915316     -7.550714  1
      0.931149     -7.362014  1
      0.946982     -7.166614  1
      0.962815     -6.964714  1
      0.978648     -6.756214  1
      0.994481     -6.541314  1
      1.010313     -6.320114  1
      1.026146     -6.092514  1
      1.041979     -5.858814  1
      1.057812     -5.619114  1
      1.073645     -5.373514  1
      1.089478     -5.122414  1
      1.105311     -4.865814  1
      1.121144     -4.604214  1
      1.136977     -4.337914  1
      1.152810     -4.067414  1
      1.168643     -3.793514  1
      1.184476     -3.517014  1
      1.200309     -3.239314  1
      1.216142     -3.045914  1
      1.231975     -3.080214  1
      1.247807     -3.108214  1
      1.263640     -3.130014  1
      1.279473     -3.145614  1
      1.295306     -3.155014  1
      1.311139     -3.158114  1


      0.000000     -1.762714  1
      0.013712     -1.799614  1
      0.027423     -1.918314  1
      0.041135     -2.089614  1
      0.054847     -2.293014  1
      0.068559     -2.515614  1
      0.082270     -2.749414  1
      0.095982     -2.989814  1
      0.109694     -3.008714  1
      0.123406     -2.969114  1
      0.137117     -2.925014  1
      0.150829     -2.876414  1
      0.164541     -2.823314  1
      0.178252     -2.765814  1
      0.191964     -2.704014  1
      0.205676     -2.637814  1
      0.219388     -2.606214  1
      0.233099     -2.674614  1
      0.246811     -2.740914  1
      0.260523     -2.804914  1
      0.274235     -2.866214  1
      0.287946     -2.924514  1
      0.301658     -2.979714  1
      0.315370     -3.031414  1
      0.329081     -3.079514  1
      0.342793     -3.123914  1
      0.356505     -3.164414  1
      0.370217     -3.201014  1
      0.383928     -3.233414  1
      0.397640     -3.261714  1
      0.411352     -3.285814  1
      0.425064     -3.305514  1
      0.438775     -3.320914  1
      0.452487     -3.332014  1
      0.466199     -3.338614  1
      0.479910     -3.340814  1
      0.487827     -3.346314  1
      0.495743     -3.362814  1
      0.503660     -3.389714  1
      0.511576     -3.426414  1
      0.519493     -3.471914  1
      0.527409     -3.525214  1
      0.535326     -3.585314  1
      0.543242     -3.650914  1
      0.551159     -3.721014  1
      0.559075     -3.794714  1
      0.566992     -3.870814  1
      0.574908     -3.948714  1
      0.582824     -4.027414  1
      0.590741     -4.106314  1
      0.598657     -4.184614  1
      0.606574     -4.261914  1
      0.614490     -4.337514  1
      0.622407     -4.411014  1
      0.630323     -4.482014  1
      0.638240     -4.549914  1
      0.646156     -4.614614  1
      0.654073     -4.675614  1
      0.661989     -4.732714  1
      0.669906     -4.785614  1
      0.677822     -4.834214  1
      0.685738     -4.878314  1
      0.693655     -4.917714  1
      0.701571     -4.952514  1
      0.709488     -4.982414  1
      0.717404     -5.007614  1
      0.725321     -5.028014  1
      0.733237     -5.043714  1
      0.741154     -5.054814  1
      0.749070     -5.061314  1
      0.756987     -5.063414  1
      0.772820     -5.055314  1
      0.788652     -5.031214  1
      0.804485     -4.992114  1
      0.820318     -4.939414  1
      0.836151     -4.874314  1
      0.851984     -4.797814  1
      0.867817     -4.711014  1
      0.883650     -4.615114  1
      0.899483     -4.510714  1
      0.915316     -4.399014  1
      0.931149     -4.280614  1
      0.946982     -4.156314  1
      0.962815     -4.027114  1
      0.978648     -3.893614  1
      0.994481     -3.756614  1
      1.010313     -3.616914  1
      1.026146     -3.475414  1
      1.041979     -3.333114  1
      1.057812     -3.190714  1
      1.073645     -3.049314  1
      1.089478     -2.909914  1
      1.105311     -2.773714  1
      1.121144     -2.712914  1
      1.136977     -2.783314  1
      1.152810     -2.847914  1
      1.168643     -2.906514  1
      1.184476     -2.959114  1
      1.200309     -3.005614  1
      1.216142     -2.962314  1
      1.231975     -2.689114  1
      1.247807     -2.424714  1
      1.263640     -2.177914  1
      1.279473     -1.964214  1
      1.295306     -1.810814  1
      1.311139     -1.762714  1


      0.000000     -1.753214  1
      0.013712     -1.765014  1
      0.027423     -1.780614  1
      0.041135     -1.805614  1
      0.054847     -1.839614  1
      0.068559     -1.881714  1
      0.082270     -1.931114  1
      0.095982     -1.986614  1
      0.109694     -2.047314  1
      0.123406     -2.112014  1
      0.137117     -2.179814  1
      0.150829     -2.249814  1
      0.164541     -2.321114  1
      0.178252     -2.393014  1
      0.191964     -2.464914  1
      0.205676     -2.536114  1
      0.219388     -2.567514  1
      0.233099     -2.493014  1
      0.246811     -2.414614  1
      0.260523     -2.332414  1
      0.274235     -2.246614  1
      0.287946     -2.157414  1
      0.301658     -2.065114  1
      0.315370     -1.970014  1
      0.329081     -1.872614  1
      0.342793     -1.773514  1
      0.356505     -1.673514  1
      0.370217     -1.573314  1
      0.383928     -1.474414  1
      0.397640     -1.378514  1
      0.411352     -1.287614  1
      0.425064     -1.204814  1
      0.438775     -1.133614  1
      0.452487     -1.078114  1
      0.466199     -1.042614  1
      0.479910     -1.030414  1
      0.487827     -1.029614  1
      0.495743     -1.027014  1
      0.503660     -1.022814  1
      0.511576     -1.016814  1
      0.519493     -1.009214  1
      0.527409     -0.999814  1
      0.535326     -0.988814  1
      0.543242     -0.976014  1
      0.551159     -0.961614  1
      0.559075     -0.945414  1
      0.566992     -0.927614  1
      0.574908     -0.908114  1
      0.582824     -0.886914  1
      0.590741     -0.864014  1
      0.598657     -0.839414  1
      0.606574     -0.813214  1
      0.614490     -0.785214  1
      0.622407     -0.755614  1
      0.630323     -0.724314  1
      0.638240     -0.691314  1
      0.646156     -0.656714  1
      0.654073     -0.620414  1
      0.661989     -0.582414  1
      0.669906     -0.542814  1
      0.677822     -0.501514  1
      0.685738     -0.458614  1
      0.693655     -0.414014  1
      0.701571     -0.367814  1
      0.709488     -0.320014  1
      0.717404     -0.270514  1
      0.725321     -0.219414  1
      0.733237     -0.166614  1
      0.741154     -0.112314  1
      0.749070     -0.056314  1
      0.756987      0.000286  1
      0.772820     -0.119514  1
      0.788652     -0.245014  1
      0.804485     -0.375114  1
      0.820318     -0.508614  1
      0.836151     -0.644414  1
      0.851984     -0.781614  1
      0.867817     -0.919214  1
      0.883650     -1.056314  1
      0.899483     -1.192214  1
      0.915316     -1.326314  1
      0.931149     -1.458014  1
      0.946982     -1.586714  1
      0.962815     -1.712114  1
      0.978648     -1.833614  1
      0.994481     -1.951114  1
      1.010313     -2.064114  1
      1.026146     -2.172414  1
      1.041979     -2.275814  1
      1.057812     -2.374114  1
      1.073645     -2.467114  1
      1.089478     -2.554714  1
      1.105311     -2.636614  1
      1.121144     -2.641714  1
      1.136977     -2.515114  1
      1.152810     -2.395114  1
      1.168643     -2.282714  1
      1.184476     -2.179114  1
      1.200309     -2.085314  1
      1.216142     -2.002114  1
      1.231975     -1.930414  1
      1.247807     -1.870914  1
      1.263640     -1.823914  1
      1.279473     -1.790014  1
      1.295306     -1.769614  1
      1.311139     -1.753214  1


      0.000000     -0.115214  1
      0.013712     -0.074114  1
      0.027423      0.037086  1
      0.041135      0.193786  1
      0.054847      0.373886  1
      0.068559      0.560786  1
      0.082270      0.742386  1
      0.095982      0.908286  1
      0.109694      1.049986  1
      0.123406      1.161186  1
      0.137117      1.238886  1
      0.150829      1.284386  1
      0.164541      1.301886  1
      0.178252      1.296786  1
      0.191964      1.274786  1
      0.205676      1.240486  1
      0.219388      1.197886  1
      0.233099      1.149786  1
      0.246811      1.098486  1
      0.260523      1.045586  1
      0.274235      0.992586  1
      0.287946      0.940286  1
      0.301658      0.889686  1
      0.315370      0.841186  1
      0.329081      0.795386  1
      0.342793      0.752786  1
      0.356505      0.713486  1
      0.370217      0.677786  1
      0.383928      0.645986  1
      0.397640      0.618086  1
      0.411352      0.594386  1
      0.425064      0.574886  1
      0.438775      0.559586  1
      0.452487      0.548686  1
      0.466199      0.542086  1
      0.479910      0.539886  1
      0.487827      0.548086  1
      0.495743      0.572386  1
      0.503660      0.612486  1
      0.511576      0.667686  1
      0.519493      0.736986  1
      0.527409      0.816986  1
      0.535326      0.812186  1
      0.543242      0.806486  1
      0.551159      0.799686  1
      0.559075      0.791986  1
      0.566992      0.783086  1
      0.574908      0.772886  1
      0.582824      0.761486  1
      0.590741      0.748586  1
      0.598657      0.734186  1
      0.606574      0.718086  1
      0.614490      0.700286  1
      0.622407      0.680686  1
      0.630323      0.658986  1
      0.638240      0.635286  1
      0.646156      0.609486  1
      0.654073      0.581386  1
      0.661989      0.550986  1
      0.669906      0.518286  1
      0.677822      0.483086  1
      0.685738      0.445486  1
      0.693655      0.405486  1
      0.701571      0.362986  1
      0.709488      0.318186  1
      0.717404      0.270986  1
      0.725321      0.221486  1
      0.733237      0.169886  1
      0.741154      0.116186  1
      0.749070      0.060486  1
      0.756987      0.003886  1
      0.772820      0.123786  1
      0.788652      0.249986  1
      0.804485      0.382486  1
      0.820318      0.521086  1
      0.836151      0.665886  1
      0.851984      0.816786  1
      0.867817      0.973486  1
      0.883650      1.136186  1
      0.899483      1.304486  1
      0.915316      1.478486  1
      0.931149      1.657886  1
      0.946982      1.842586  1
      0.962815      2.032486  1
      0.978648      2.227186  1
      0.994481      2.426686  1
      1.010313      2.630686  1
      1.026146      2.698786  1
      1.041979      2.568786  1
      1.057812      2.440886  1
      1.073645      2.314186  1
      1.089478      2.187486  1
      1.105311      2.059286  1
      1.121144      1.927586  1
      1.136977      1.790286  1
      1.152810      1.644586  1
      1.168643      1.487686  1
      1.184476      1.316886  1
      1.200309      1.130686  1
      1.216142      0.928886  1
      1.231975      0.714386  1
      1.247807      0.493286  1
      1.263640      0.276486  1
      1.279473      0.081986  1
      1.295306     -0.060914  1
      1.311139     -0.115214  1


      0.000000      3.071586  1
      0.013712      3.071786  1
      0.027423      3.069786  1
      0.041135      3.067586  1
      0.054847      3.068286  1
      0.068559      3.075886  1
      0.082270      3.096086  1
      0.095982      3.135386  1
      0.109694      3.200686  1
      0.123406      3.297686  1
      0.137117      3.428986  1
      0.150829      3.593386  1
      0.164541      3.786786  1
      0.178252      4.003786  1
      0.191964      4.087286  1
      0.205676      3.886386  1
      0.219388      3.684886  1
      0.233099      3.483486  1
      0.246811      3.282986  1
      0.260523      3.083986  1
      0.274235      2.887086  1
      0.287946      2.692786  1
      0.301658      2.501586  1
      0.315370      2.314286  1
      0.329081      2.131386  1
      0.342793      1.953686  1
      0.356505      1.781986  1
      0.370217      1.617586  1
      0.383928      1.461586  1
      0.397640      1.316086  1
      0.411352      1.183086  1
      0.425064      1.065686  1
      0.438775      0.967586  1
      0.452487      0.892886  1
      0.466199      0.845886  1
      0.479910      0.829786  1
      0.487827      0.829386  1
      0.495743      0.828386  1
      0.503660      0.826686  1
      0.511576      0.824186  1
      0.519493      0.820986  1
      0.527409      0.819486  1
      0.535326      0.914086  1
      0.543242      1.019786  1
      0.551159      1.135486  1
      0.559075      1.260386  1
      0.566992      1.393486  1
      0.574908      1.533986  1
      0.582824      1.681286  1
      0.590741      1.834586  1
      0.598657      1.993486  1
      0.606574      2.157386  1
      0.614490      2.325786  1
      0.622407      2.498186  1
      0.630323      2.674286  1
      0.638240      2.853786  1
      0.646156      3.036086  1
      0.654073      3.220986  1
      0.661989      3.407986  1
      0.669906      3.596786  1
      0.677822      3.786886  1
      0.685738      3.977786  1
      0.693655      4.168886  1
      0.701571      4.359386  1
      0.709488      4.548386  1
      0.717404      4.734386  1
      0.725321      4.915686  1
      0.733237      4.981786  1
      0.741154      4.968286  1
      0.749070      4.960386  1
