# GNUBANDS: Utility for SIESTA to transform bands output into Gnuplot format
#
#                                                  Emilio Artacho, Feb. 1999
#                                                   Alberto Garcia, May 2012
#                                         Nick Papior, April 2013, July 2016
# --------------------------------------------------------------------------
# Bands for all spins
# E_F               =    -4.7095
# k_min, k_max      =     0.0000    2.4818
# E_min, E_max      =   -20.0000   10.0000
# Nbands, Nspin, Nk =     26     2   106
# Using min_band, max_band =      1    26
# Total number of bands =     26
#
#        k            E[eV]
# --------------------------------------------------------------------------

      0.000000    -19.078000  1
      0.014511    -19.077800  1
      0.029022    -19.077200  1
      0.043533    -19.076200  1
      0.058044    -19.074800  1
      0.072556    -19.073200  1
      0.087067    -19.071300  1
      0.101578    -19.069100  1
      0.116089    -19.066800  1
      0.130600    -19.064400  1
      0.145111    -19.061900  1
      0.159622    -19.059300  1
      0.174133    -19.056700  1
      0.188645    -19.054000  1
      0.203156    -19.051500  1
      0.217667    -19.049000  1
      0.232178    -19.046600  1
      0.246689    -19.044400  1
      0.261200    -19.042300  1
      0.275711    -19.040500  1
      0.290222    -19.038900  1
      0.304734    -19.037600  1
      0.319245    -19.036600  1
      0.333756    -19.035900  1
      0.348267    -19.035600  1
      0.362778    -19.035600  1
      0.377289    -19.035900  1
      0.391800    -19.036500  1
      0.406311    -19.037400  1
      0.420823    -19.038500  1
      0.435334    -19.039800  1
      0.449845    -19.041300  1
      0.464356    -19.042800  1
      0.478867    -19.044400  1
      0.493378    -19.046000  1
      0.507889    -19.047600  1
      0.532621    -19.050700  1
      0.557353    -19.053300  1
      0.582085    -19.055100  1
      0.606817    -19.056300  1
      0.631548    -19.057000  1
      0.656280    -19.057500  1
      0.681012    -19.058000  1
      0.705744    -19.058800  1
      0.730476    -19.059600  1
      0.755207    -19.060300  1
      0.779939    -19.060700  1
      0.804671    -19.060400  1
      0.829403    -19.059500  1
      0.854135    -19.057800  1
      0.878867    -19.055500  1
      0.903598    -19.052900  1
      0.928330    -19.049900  1
      0.953062    -19.046800  1
      0.977794    -19.043600  1
      1.002526    -19.040500  1
      1.027257    -19.037600  1
      1.051989    -19.035300  1
      1.076721    -19.033700  1
      1.101453    -19.033200  1
      1.126185    -19.033800  1
      1.150916    -19.035400  1
      1.175648    -19.037900  1
      1.200380    -19.040900  1
      1.225112    -19.044200  1
      1.249844    -19.047400  1
      1.274575    -19.050500  1
      1.299307    -19.053100  1
      1.324039    -19.055300  1
      1.348771    -19.057100  1
      1.373503    -19.058600  1
      1.405169    -19.056500  1
      1.436834    -19.053700  1
      1.468500    -19.049900  1
      1.500166    -19.044900  1
      1.531832    -19.039100  1
      1.563498    -19.033000  1
      1.595164    -19.027400  1
      1.626829    -19.023200  1
      1.658495    -19.020700  1
      1.690161    -19.019800  1
      1.721827    -19.019900  1
      1.753493    -19.020600  1
      1.785159    -19.021100  1
      1.816825    -19.021400  1
      1.848490    -19.021100  1
      1.880156    -19.020600  1
      1.911822    -19.019900  1
      1.943488    -19.019800  1
      1.975154    -19.020700  1
      2.006820    -19.023200  1
      2.038485    -19.027400  1
      2.070151    -19.033000  1
      2.101817    -19.039100  1
      2.133483    -19.044900  1
      2.165149    -19.049900  1
      2.196815    -19.053700  1
      2.228481    -19.056500  1
      2.260146    -19.058600  1
      2.291812    -19.060500  1
      2.323478    -19.063100  1
      2.355144    -19.066600  1
      2.386810    -19.070700  1
      2.418476    -19.074400  1
      2.450141    -19.077000  1
      2.481807    -19.078000  1


      0.000000     -9.532600  1
      0.014511     -9.532500  1
      0.029022     -9.532300  1
      0.043533     -9.532000  1
      0.058044     -9.531500  1
      0.072556     -9.530800  1
      0.087067     -9.529800  1
      0.101578     -9.528700  1
      0.116089     -9.527400  1
      0.130600     -9.525800  1
      0.145111     -9.524000  1
      0.159622     -9.522000  1
      0.174133     -9.519900  1
      0.188645     -9.517600  1
      0.203156     -9.515200  1
      0.217667     -9.512700  1
      0.232178     -9.515500  1
      0.246689     -9.528700  1
      0.261200     -9.540800  1
      0.275711     -9.551500  1
      0.290222     -9.560700  1
      0.304734     -9.568200  1
      0.319245     -9.573900  1
      0.333756     -9.577900  1
      0.348267     -9.580100  1
      0.362778     -9.580500  1
      0.377289     -9.579100  1
      0.391800     -9.576200  1
      0.406311     -9.571800  1
      0.420823     -9.566200  1
      0.435334     -9.559500  1
      0.449845     -9.552000  1
      0.464356     -9.543900  1
      0.478867     -9.535400  1
      0.493378     -9.527000  1
      0.507889     -9.518700  1
      0.532621     -9.504000  1
      0.557353     -9.508000  1
      0.582085     -9.512000  1
      0.606817     -9.515800  1
      0.631548     -9.519300  1
      0.656280     -9.522200  1
      0.681012     -9.524200  1
      0.705744     -9.525200  1
      0.730476     -9.525200  1
      0.755207     -9.524000  1
      0.779939     -9.521900  1
      0.804671     -9.519100  1
      0.829403     -9.515900  1
      0.854135     -9.512800  1
      0.878867     -9.510000  1
      0.903598     -9.507700  1
      0.928330     -9.513700  1
      0.953062     -9.532000  1
      0.977794     -9.549300  1
      1.002526     -9.564600  1
      1.027257     -9.576900  1
      1.051989     -9.585600  1
      1.076721     -9.590400  1
      1.101453     -9.591200  1
      1.126185     -9.588000  1
      1.150916     -9.580900  1
      1.175648     -9.570300  1
      1.200380     -9.556600  1
      1.225112     -9.540400  1
      1.249844     -9.522500  1
      1.274575     -9.503700  1
      1.299307     -9.507800  1
      1.324039     -9.512200  1
      1.348771     -9.516700  1
      1.373503     -9.521000  1
      1.405169     -9.514900  1
      1.436834     -9.508700  1
      1.468500     -9.505300  1
      1.500166     -9.532300  1
      1.531832     -9.560000  1
      1.563498     -9.587400  1
      1.595164     -9.613500  1
      1.626829     -9.637400  1
      1.658495     -9.658100  1
      1.690161     -9.674700  1
      1.721827     -9.686600  1
      1.753493     -9.693900  1
      1.785159     -9.697400  1
      1.816825     -9.698300  1
      1.848490     -9.697400  1
      1.880156     -9.693900  1
      1.911822     -9.686600  1
      1.943488     -9.674700  1
      1.975154     -9.658100  1
      2.006820     -9.637400  1
      2.038485     -9.613500  1
      2.070151     -9.587400  1
      2.101817     -9.560000  1
      2.133483     -9.532300  1
      2.165149     -9.505300  1
      2.196815     -9.508700  1
      2.228481     -9.514900  1
      2.260146     -9.521000  1
      2.291812     -9.526600  1
      2.323478     -9.531000  1
      2.355144     -9.533700  1
      2.386810     -9.534600  1
      2.418476     -9.534100  1
      2.450141     -9.533100  1
      2.481807     -9.532600  1


      0.000000     -9.366700  1
      0.014511     -9.367100  1
      0.029022     -9.368500  1
      0.043533     -9.370900  1
      0.058044     -9.374600  1
      0.072556     -9.379700  1
      0.087067     -9.386300  1
      0.101578     -9.394600  1
      0.116089     -9.404400  1
      0.130600     -9.415900  1
      0.145111     -9.428600  1
      0.159622     -9.442400  1
      0.174133     -9.456900  1
      0.188645     -9.471800  1
      0.203156     -9.486800  1
      0.217667     -9.501500  1
      0.232178     -9.510300  1
      0.246689     -9.507800  1
      0.261200     -9.505400  1
      0.275711     -9.503200  1
      0.290222     -9.501100  1
      0.304734     -9.499200  1
      0.319245     -9.497600  1
      0.333756     -9.496100  1
      0.348267     -9.495000  1
      0.362778     -9.494200  1
      0.377289     -9.493600  1
      0.391800     -9.493400  1
      0.406311     -9.493400  1
      0.420823     -9.493700  1
      0.435334     -9.494300  1
      0.449845     -9.495200  1
      0.464356     -9.496200  1
      0.478867     -9.497400  1
      0.493378     -9.498800  1
      0.507889     -9.500300  1
      0.532621     -9.500200  1
      0.557353     -9.483300  1
      0.582085     -9.468300  1
      0.606817     -9.455600  1
      0.631548     -9.445500  1
      0.656280     -9.438000  1
      0.681012     -9.433100  1
      0.705744     -9.430800  1
      0.730476     -9.430900  1
      0.755207     -9.433300  1
      0.779939     -9.438000  1
      0.804671     -9.444800  1
      0.829403     -9.453900  1
      0.854135     -9.465400  1
      0.878867     -9.479400  1
      0.903598     -9.495800  1
      0.928330     -9.505700  1
      0.953062     -9.504100  1
      0.977794     -9.502500  1
      1.002526     -9.500800  1
      1.027257     -9.499100  1
      1.051989     -9.497400  1
      1.076721     -9.495900  1
      1.101453     -9.494600  1
      1.126185     -9.493700  1
      1.150916     -9.493500  1
      1.175648     -9.494000  1
      1.200380     -9.495200  1
      1.225112     -9.497300  1
      1.249844     -9.500200  1
      1.274575     -9.503700  1
      1.299307     -9.484700  1
      1.324039     -9.466500  1
      1.348771     -9.449600  1
      1.373503     -9.434500  1
      1.405169     -9.455800  1
      1.436834     -9.479600  1
      1.468500     -9.502900  1
      1.500166     -9.497800  1
      1.531832     -9.493700  1
      1.563498     -9.490300  1
      1.595164     -9.487600  1
      1.626829     -9.485300  1
      1.658495     -9.483200  1
      1.690161     -9.480800  1
      1.721827     -9.478400  1
      1.753493     -9.476100  1
      1.785159     -9.474300  1
      1.816825     -9.473700  1
      1.848490     -9.474300  1
      1.880156     -9.476100  1
      1.911822     -9.478400  1
      1.943488     -9.480800  1
      1.975154     -9.483200  1
      2.006820     -9.485300  1
      2.038485     -9.487600  1
      2.070151     -9.490300  1
      2.101817     -9.493700  1
      2.133483     -9.497800  1
      2.165149     -9.502900  1
      2.196815     -9.479600  1
      2.228481     -9.455800  1
      2.260146     -9.434500  1
      2.291812     -9.416000  1
      2.323478     -9.400500  1
      2.355144     -9.388000  1
      2.386810     -9.378500  1
      2.418476     -9.371800  1
      2.450141     -9.367900  1
      2.481807     -9.366700  1


      0.000000     -8.242000  1
      0.014511     -8.243200  1
      0.029022     -8.246500  1
      0.043533     -8.252100  1
      0.058044     -8.259700  1
      0.072556     -8.269400  1
      0.087067     -8.280800  1
      0.101578     -8.294000  1
      0.116089     -8.308700  1
      0.130600     -8.324700  1
      0.145111     -8.341800  1
      0.159622     -8.359800  1
      0.174133     -8.378600  1
      0.188645     -8.397900  1
      0.203156     -8.417500  1
      0.217667     -8.437400  1
      0.232178     -8.457300  1
      0.246689     -8.477100  1
      0.261200     -8.496700  1
      0.275711     -8.516000  1
      0.290222     -8.534900  1
      0.304734     -8.553200  1
      0.319245     -8.570900  1
      0.333756     -8.587800  1
      0.348267     -8.603900  1
      0.362778     -8.618900  1
      0.377289     -8.632900  1
      0.391800     -8.645500  1
      0.406311     -8.656800  1
      0.420823     -8.666600  1
      0.435334     -8.674700  1
      0.449845     -8.681000  1
      0.464356     -8.685400  1
      0.478867     -8.687900  1
      0.493378     -8.688400  1
      0.507889     -8.686900  1
      0.532621     -8.676700  1
      0.557353     -8.658300  1
      0.582085     -8.632500  1
      0.606817     -8.600400  1
      0.631548     -8.563600  1
      0.656280     -8.523700  1
      0.681012     -8.482400  1
      0.705744     -8.441400  1
      0.730476     -8.402300  1
      0.755207     -8.366700  1
      0.779939     -8.336100  1
      0.804671     -8.312000  1
      0.829403     -8.295400  1
      0.854135     -8.287300  1
      0.878867     -8.287900  1
      0.903598     -8.297400  1
      0.928330     -8.315100  1
      0.953062     -8.340300  1
      0.977794     -8.371800  1
      1.002526     -8.407900  1
      1.027257     -8.447000  1
      1.051989     -8.487400  1
      1.076721     -8.527400  1
      1.101453     -8.565300  1
      1.126185     -8.599800  1
      1.150916     -8.629600  1
      1.175648     -8.653500  1
      1.200380     -8.670500  1
      1.225112     -8.679800  1
      1.249844     -8.680800  1
      1.274575     -8.673300  1
      1.299307     -8.657300  1
      1.324039     -8.633200  1
      1.348771     -8.601900  1
      1.373503     -8.564800  1
      1.405169     -8.616400  1
      1.436834     -8.655900  1
      1.468500     -8.680600  1
      1.500166     -8.689100  1
      1.531832     -8.681400  1
      1.563498     -8.658600  1
      1.595164     -8.623200  1
      1.626829     -8.578300  1
      1.658495     -8.527900  1
      1.690161     -8.476500  1
      1.721827     -8.429300  1
      1.753493     -8.391000  1
      1.785159     -8.366100  1
      1.816825     -8.357400  1
      1.848490     -8.366100  1
      1.880156     -8.391000  1
      1.911822     -8.429300  1
      1.943488     -8.476500  1
      1.975154     -8.527900  1
      2.006820     -8.578300  1
      2.038485     -8.623200  1
      2.070151     -8.658700  1
      2.101817     -8.681400  1
      2.133483     -8.689100  1
      2.165149     -8.680600  1
      2.196815     -8.655900  1
      2.228481     -8.616400  1
      2.260146     -8.564800  1
      2.291812     -8.504800  1
      2.323478     -8.441300  1
      2.355144     -8.379300  1
      2.386810     -8.323900  1
      2.418476     -8.280100  1
      2.450141     -8.251800  1
      2.481807     -8.242000  1


      0.000000     -0.007300  1
      0.014511     -0.006600  1
      0.029022     -0.004400  1
      0.043533     -0.000100  1
      0.058044      0.007000  1
      0.072556      0.017800  1
      0.087067      0.033700  1
      0.101578      0.055800  1
      0.116089      0.085200  1
      0.130600      0.122400  1
      0.145111      0.167800  1
      0.159622      0.220900  1
      0.174133      0.280900  1
      0.188645      0.346000  1
      0.203156      0.413700  1
      0.217667      0.480800  1
      0.232178      0.543200  1
      0.246689      0.596600  1
      0.261200      0.638300  1
      0.275711      0.667900  1
      0.290222      0.687900  1
      0.304734      0.701900  1
      0.319245      0.713300  1
      0.333756      0.724700  1
      0.348267      0.737700  1
      0.362778      0.753300  1
      0.377289      0.772100  1
      0.391800      0.794300  1
      0.406311      0.819500  1
      0.420823      0.847400  1
      0.435334      0.872000  1
      0.449845      0.866000  1
      0.464356      0.859200  1
      0.478867      0.851600  1
      0.493378      0.843600  1
      0.507889      0.835400  1
      0.532621      0.823500  1
      0.557353      0.826000  1
      0.582085      0.842900  1
      0.606817      0.818600  1
      0.631548      0.724000  1
      0.656280      0.621000  1
      0.681012      0.517600  1
      0.705744      0.417400  1
      0.730476      0.322300  1
      0.755207      0.234100  1
      0.779939      0.155600  1
      0.804671      0.091000  1
      0.829403      0.044700  1
      0.854135      0.021300  1
      0.878867      0.024600  1
      0.903598      0.058200  1
      0.928330      0.124300  1
      0.953062      0.223800  1
      0.977794      0.355800  1
      1.002526      0.516300  1
      1.027257      0.695400  1
      1.051989      0.853000  1
      1.076721      0.885800  1
      1.101453      0.850400  1
      1.126185      0.812100  1
      1.150916      0.782900  1
      1.175648      0.766000  1
      1.200380      0.762600  1
      1.225112      0.773400  1
      1.249844      0.798400  1
      1.274575      0.806300  1
      1.299307      0.820800  1
      1.324039      0.847700  1
      1.348771      0.886700  1
      1.373503      0.937400  1
      1.405169      0.870400  1
      1.436834      0.832400  1
      1.468500      0.826100  1
      1.500166      0.853300  1
      1.531832      0.915300  1
      1.563498      1.013000  1
      1.595164      1.146700  1
      1.626829      1.215600  1
      1.658495      0.914600  1
      1.690161      0.632300  1
      1.721827      0.392300  1
      1.753493      0.210300  1
      1.785159      0.097100  1
      1.816825      0.058700  1
      1.848490      0.097100  1
      1.880156      0.210400  1
      1.911822      0.392300  1
      1.943488      0.632300  1
      1.975154      0.914700  1
      2.006820      1.215600  1
      2.038485      1.146700  1
      2.070151      1.013000  1
      2.101817      0.915300  1
      2.133483      0.853300  1
      2.165149      0.826100  1
      2.196815      0.832400  1
      2.228481      0.870400  1
      2.260146      0.937400  1
      2.291812      0.737100  1
      2.323478      0.522200  1
      2.355144      0.339100  1
      2.386810      0.191900  1
      2.418476      0.083100  1
      2.450141      0.015600  1
      2.481807     -0.007300  1


      0.000000      1.658800  1
      0.014511      1.654500  1
      0.029022      1.641600  1
      0.043533      1.620900  1
      0.058044      1.593100  1
      0.072556      1.559300  1
      0.087067      1.520600  1
      0.101578      1.478200  1
      0.116089      1.433200  1
      0.130600      1.386700  1
      0.145111      1.339400  1
      0.159622      1.292400  1
      0.174133      1.246200  1
      0.188645      1.201600  1
      0.203156      1.159000  1
      0.217667      1.119000  1
      0.232178      1.081900  1
      0.246689      1.048100  1
      0.261200      1.017600  1
      0.275711      0.990700  1
      0.290222      0.967400  1
      0.304734      0.947600  1
      0.319245      0.931200  1
      0.333756      0.917900  1
      0.348267      0.907300  1
      0.362778      0.898900  1
      0.377289      0.892300  1
      0.391800      0.886900  1
      0.406311      0.882100  1
      0.420823      0.877200  1
      0.435334      0.877100  1
      0.449845      0.907300  1
      0.464356      0.935900  1
      0.478867      0.960300  1
      0.493378      0.976600  1
      0.507889      0.980300  1
      0.532621      0.967600  1
      0.557353      0.942200  1
      0.582085      0.893800  1
      0.606817      0.873900  1
      0.631548      0.918100  1
      0.656280      0.974600  1
      0.681012      1.041600  1
      0.705744      1.116900  1
      0.730476      1.197100  1
      0.755207      1.277500  1
      0.779939      1.351700  1
      0.804671      1.412200  1
      0.829403      1.451900  1
      0.854135      1.466600  1
      0.878867      1.456700  1
      0.903598      1.426800  1
      0.928330      1.382800  1
      0.953062      1.330600  1
      0.977794      1.274300  1
      1.002526      1.214600  1
      1.027257      1.135300  1
      1.051989      1.102400  1
      1.076721      1.047500  1
      1.101453      0.994800  1
      1.126185      0.945500  1
      1.150916      0.901100  1
      1.175648      0.863200  1
      1.200380      0.833400  1
      1.225112      0.813300  1
      1.249844      0.804000  1
      1.274575      0.837500  1
      1.299307      0.890300  1
      1.324039      0.955300  1
      1.348771      1.026500  1
      1.373503      0.975200  1
