# GNUBANDS: Utility for SIESTA to transform bands output into Gnuplot format
#
#                                                  Emilio Artacho, Feb. 1999
#                                                   Alberto Garcia, May 2012
#                                         Nick Papior, April 2013, July 2016
# --------------------------------------------------------------------------
# Bands for all spins
# E_F / orig        =      0.0000    -4.7095
# k_min, k_max      =     0.0000    2.4818
# E_min, E_max      =   -10.0000   10.0000
# Nbands, Nspin, Nk =     26     2   106
# Using min_band, max_band =      1    26
# Total number of bands =     26
#
#        k            E[eV]
# --------------------------------------------------------------------------

      0.000000     -4.823102  1
      0.014511     -4.823002  1
      0.029022     -4.822802  1
      0.043533     -4.822502  1
      0.058044     -4.822002  1
      0.072556     -4.821302  1
      0.087067     -4.820302  1
      0.101578     -4.819202  1
      0.116089     -4.817902  1
      0.130600     -4.816302  1
      0.145111     -4.814502  1
      0.159622     -4.812502  1
      0.174133     -4.810402  1
      0.188645     -4.808102  1
      0.203156     -4.805702  1
      0.217667     -4.803202  1
      0.232178     -4.806002  1
      0.246689     -4.819202  1
      0.261200     -4.831302  1
      0.275711     -4.842002  1
      0.290222     -4.851202  1
      0.304734     -4.858702  1
      0.319245     -4.864402  1
      0.333756     -4.868402  1
      0.348267     -4.870602  1
      0.362778     -4.871002  1
      0.377289     -4.869602  1
      0.391800     -4.866702  1
      0.406311     -4.862302  1
      0.420823     -4.856702  1
      0.435334     -4.850002  1
      0.449845     -4.842502  1
      0.464356     -4.834402  1
      0.478867     -4.825902  1
      0.493378     -4.817502  1
      0.507889     -4.809202  1
      0.532621     -4.794502  1
      0.557353     -4.798502  1
      0.582085     -4.802502  1
      0.606817     -4.806302  1
      0.631548     -4.809802  1
      0.656280     -4.812702  1
      0.681012     -4.814702  1
      0.705744     -4.815702  1
      0.730476     -4.815702  1
      0.755207     -4.814502  1
      0.779939     -4.812402  1
      0.804671     -4.809602  1
      0.829403     -4.806402  1
      0.854135     -4.803302  1
      0.878867     -4.800502  1
      0.903598     -4.798202  1
      0.928330     -4.804202  1
      0.953062     -4.822502  1
      0.977794     -4.839802  1
      1.002526     -4.855102  1
      1.027257     -4.867402  1
      1.051989     -4.876102  1
      1.076721     -4.880902  1
      1.101453     -4.881702  1
      1.126185     -4.878502  1
      1.150916     -4.871402  1
      1.175648     -4.860802  1
      1.200380     -4.847102  1
      1.225112     -4.830902  1
      1.249844     -4.813002  1
      1.274575     -4.794202  1
      1.299307     -4.798302  1
      1.324039     -4.802702  1
      1.348771     -4.807202  1
      1.373503     -4.811502  1
      1.405169     -4.805402  1
      1.436834     -4.799202  1
      1.468500     -4.795802  1
      1.500166     -4.822802  1
      1.531832     -4.850502  1
      1.563498     -4.877902  1
      1.595164     -4.904002  1
      1.626829     -4.927902  1
      1.658495     -4.948602  1
      1.690161     -4.965202  1
      1.721827     -4.977102  1
      1.753493     -4.984402  1
      1.785159     -4.987902  1
      1.816825     -4.988802  1
      1.848490     -4.987902  1
      1.880156     -4.984402  1
      1.911822     -4.977102  1
      1.943488     -4.965202  1
      1.975154     -4.948602  1
      2.006820     -4.927902  1
      2.038485     -4.904002  1
      2.070151     -4.877902  1
      2.101817     -4.850502  1
      2.133483     -4.822802  1
      2.165149     -4.795802  1
      2.196815     -4.799202  1
      2.228481     -4.805402  1
      2.260146     -4.811502  1
      2.291812     -4.817102  1
      2.323478     -4.821502  1
      2.355144     -4.824202  1
      2.386810     -4.825102  1
      2.418476     -4.824602  1
      2.450141     -4.823602  1
      2.481807     -4.823102  1


      0.000000     -4.657202  1
      0.014511     -4.657602  1
      0.029022     -4.659002  1
      0.043533     -4.661402  1
      0.058044     -4.665102  1
      0.072556     -4.670202  1
      0.087067     -4.676802  1
      0.101578     -4.685102  1
      0.116089     -4.694902  1
      0.130600     -4.706402  1
      0.145111     -4.719102  1
      0.159622     -4.732902  1
      0.174133     -4.747402  1
      0.188645     -4.762302  1
      0.203156     -4.777302  1
      0.217667     -4.792002  1
      0.232178     -4.800802  1
      0.246689     -4.798302  1
      0.261200     -4.795902  1
      0.275711     -4.793702  1
      0.290222     -4.791602  1
      0.304734     -4.789702  1
      0.319245     -4.788102  1
      0.333756     -4.786602  1
      0.348267     -4.785502  1
      0.362778     -4.784702  1
      0.377289     -4.784102  1
      0.391800     -4.783902  1
      0.406311     -4.783902  1
      0.420823     -4.784202  1
      0.435334     -4.784802  1
      0.449845     -4.785702  1
      0.464356     -4.786702  1
      0.478867     -4.787902  1
      0.493378     -4.789302  1
      0.507889     -4.790802  1
      0.532621     -4.790702  1
      0.557353     -4.773802  1
      0.582085     -4.758802  1
      0.606817     -4.746102  1
      0.631548     -4.736002  1
      0.656280     -4.728502  1
      0.681012     -4.723602  1
      0.705744     -4.721302  1
      0.730476     -4.721402  1
      0.755207     -4.723802  1
      0.779939     -4.728502  1
      0.804671     -4.735302  1
      0.829403     -4.744402  1
      0.854135     -4.755902  1
      0.878867     -4.769902  1
      0.903598     -4.786302  1
      0.928330     -4.796202  1
      0.953062     -4.794602  1
      0.977794     -4.793002  1
      1.002526     -4.791302  1
      1.027257     -4.789602  1
      1.051989     -4.787902  1
      1.076721     -4.786402  1
      1.101453     -4.785102  1
      1.126185     -4.784202  1
      1.150916     -4.784002  1
      1.175648     -4.784502  1
      1.200380     -4.785702  1
      1.225112     -4.787802  1
      1.249844     -4.790702  1
      1.274575     -4.794202  1
      1.299307     -4.775202  1
      1.324039     -4.757002  1
      1.348771     -4.740102  1
      1.373503     -4.725002  1
      1.405169     -4.746302  1
      1.436834     -4.770102  1
      1.468500     -4.793402  1
      1.500166     -4.788302  1
      1.531832     -4.784202  1
      1.563498     -4.780802  1
      1.595164     -4.778102  1
      1.626829     -4.775802  1
      1.658495     -4.773702  1
      1.690161     -4.771302  1
      1.721827     -4.768902  1
      1.753493     -4.766602  1
      1.785159     -4.764802  1
      1.816825     -4.764202  1
      1.848490     -4.764802  1
      1.880156     -4.766602  1
      1.911822     -4.768902  1
      1.943488     -4.771302  1
      1.975154     -4.773702  1
      2.006820     -4.775802  1
      2.038485     -4.778102  1
      2.070151     -4.780802  1
      2.101817     -4.784202  1
      2.133483     -4.788302  1
      2.165149     -4.793402  1
      2.196815     -4.770102  1
      2.228481     -4.746302  1
      2.260146     -4.725002  1
      2.291812     -4.706502  1
      2.323478     -4.691002  1
      2.355144     -4.678502  1
      2.386810     -4.669002  1
      2.418476     -4.662302  1
      2.450141     -4.658402  1
      2.481807     -4.657202  1


      0.000000     -3.532502  1
      0.014511     -3.533702  1
      0.029022     -3.537002  1
      0.043533     -3.542602  1
      0.058044     -3.550202  1
      0.072556     -3.559902  1
      0.087067     -3.571302  1
      0.101578     -3.584502  1
      0.116089     -3.599202  1
      0.130600     -3.615202  1
      0.145111     -3.632302  1
      0.159622     -3.650302  1
      0.174133     -3.669102  1
      0.188645     -3.688402  1
      0.203156     -3.708002  1
      0.217667     -3.727902  1
      0.232178     -3.747802  1
      0.246689     -3.767602  1
      0.261200     -3.787202  1
      0.275711     -3.806502  1
      0.290222     -3.825402  1
      0.304734     -3.843702  1
      0.319245     -3.861402  1
      0.333756     -3.878302  1
      0.348267     -3.894402  1
      0.362778     -3.909402  1
      0.377289     -3.923402  1
      0.391800     -3.936002  1
      0.406311     -3.947302  1
      0.420823     -3.957102  1
      0.435334     -3.965202  1
      0.449845     -3.971502  1
      0.464356     -3.975902  1
      0.478867     -3.978402  1
      0.493378     -3.978902  1
      0.507889     -3.977402  1
      0.532621     -3.967202  1
      0.557353     -3.948802  1
      0.582085     -3.923002  1
      0.606817     -3.890902  1
      0.631548     -3.854102  1
      0.656280     -3.814202  1
      0.681012     -3.772902  1
      0.705744     -3.731902  1
      0.730476     -3.692802  1
      0.755207     -3.657202  1
      0.779939     -3.626602  1
      0.804671     -3.602502  1
      0.829403     -3.585902  1
      0.854135     -3.577802  1
      0.878867     -3.578402  1
      0.903598     -3.587902  1
      0.928330     -3.605602  1
      0.953062     -3.630802  1
      0.977794     -3.662302  1
      1.002526     -3.698402  1
      1.027257     -3.737502  1
      1.051989     -3.777902  1
      1.076721     -3.817902  1
      1.101453     -3.855802  1
      1.126185     -3.890302  1
      1.150916     -3.920102  1
      1.175648     -3.944002  1
      1.200380     -3.961002  1
      1.225112     -3.970302  1
      1.249844     -3.971302  1
      1.274575     -3.963802  1
      1.299307     -3.947802  1
      1.324039     -3.923702  1
      1.348771     -3.892402  1
      1.373503     -3.855302  1
      1.405169     -3.906902  1
      1.436834     -3.946402  1
      1.468500     -3.971102  1
      1.500166     -3.979602  1
      1.531832     -3.971902  1
      1.563498     -3.949102  1
      1.595164     -3.913702  1
      1.626829     -3.868802  1
      1.658495     -3.818402  1
      1.690161     -3.767002  1
      1.721827     -3.719802  1
      1.753493     -3.681502  1
      1.785159     -3.656602  1
      1.816825     -3.647902  1
      1.848490     -3.656602  1
      1.880156     -3.681502  1
      1.911822     -3.719802  1
      1.943488     -3.767002  1
      1.975154     -3.818402  1
      2.006820     -3.868802  1
      2.038485     -3.913702  1
      2.070151     -3.949202  1
      2.101817     -3.971902  1
      2.133483     -3.979602  1
      2.165149     -3.971102  1
      2.196815     -3.946402  1
      2.228481     -3.906902  1
      2.260146     -3.855302  1
      2.291812     -3.795302  1
      2.323478     -3.731802  1
      2.355144     -3.669802  1
      2.386810     -3.614402  1
      2.418476     -3.570602  1
      2.450141     -3.542302  1
      2.481807     -3.532502  1


      0.000000      4.702198  1
      0.014511      4.702898  1
      0.029022      4.705098  1
      0.043533      4.709398  1
      0.058044      4.716498  1
      0.072556      4.727298  1
      0.087067      4.743198  1
      0.101578      4.765298  1
      0.116089      4.794698  1
      0.130600      4.831898  1
      0.145111      4.877298  1
      0.159622      4.930398  1
      0.174133      4.990398  1
      0.188645      5.055498  1
      0.203156      5.123198  1
      0.217667      5.190298  1
      0.232178      5.252698  1
      0.246689      5.306098  1
      0.261200      5.347798  1
      0.275711      5.377398  1
      0.290222      5.397398  1
      0.304734      5.411398  1
      0.319245      5.422798  1
      0.333756      5.434198  1
      0.348267      5.447198  1
      0.362778      5.462798  1
      0.377289      5.481598  1
      0.391800      5.503798  1
      0.406311      5.528998  1
      0.420823      5.556898  1
      0.435334      5.581498  1
      0.449845      5.575498  1
      0.464356      5.568698  1
      0.478867      5.561098  1
      0.493378      5.553098  1
      0.507889      5.544898  1
      0.532621      5.532998  1
      0.557353      5.535498  1
      0.582085      5.552398  1
      0.606817      5.528098  1
      0.631548      5.433498  1
      0.656280      5.330498  1
      0.681012      5.227098  1
      0.705744      5.126898  1
      0.730476      5.031798  1
      0.755207      4.943598  1
      0.779939      4.865098  1
      0.804671      4.800498  1
      0.829403      4.754198  1
      0.854135      4.730798  1
      0.878867      4.734098  1
      0.903598      4.767698  1
      0.928330      4.833798  1
      0.953062      4.933298  1
      0.977794      5.065298  1
      1.002526      5.225798  1
      1.027257      5.404898  1
      1.051989      5.562498  1
      1.076721      5.595298  1
      1.101453      5.559898  1
      1.126185      5.521598  1
      1.150916      5.492398  1
      1.175648      5.475498  1
      1.200380      5.472098  1
      1.225112      5.482898  1
      1.249844      5.507898  1
      1.274575      5.515798  1
      1.299307      5.530298  1
      1.324039      5.557198  1
      1.348771      5.596198  1
      1.373503      5.646898  1
      1.405169      5.579898  1
      1.436834      5.541898  1
      1.468500      5.535598  1
      1.500166      5.562798  1
      1.531832      5.624798  1
      1.563498      5.722498  1
      1.595164      5.856198  1
      1.626829      5.925098  1
      1.658495      5.624098  1
      1.690161      5.341798  1
      1.721827      5.101798  1
      1.753493      4.919798  1
      1.785159      4.806598  1
      1.816825      4.768198  1
      1.848490      4.806598  1
      1.880156      4.919898  1
      1.911822      5.101798  1
      1.943488      5.341798  1
      1.975154      5.624198  1
      2.006820      5.925098  1
      2.038485      5.856198  1
      2.070151      5.722498  1
      2.101817      5.624798  1
      2.133483      5.562798  1
      2.165149      5.535598  1
      2.196815      5.541898  1
      2.228481      5.579898  1
      2.260146      5.646898  1
      2.291812      5.446598  1
      2.323478      5.231698  1
      2.355144      5.048598  1
      2.386810      4.901398  1
      2.418476      4.792598  1
      2.450141      4.725098  1
      2.481807      4.702198  1


      0.000000      6.368298  1
      0.014511      6.363998  1
      0.029022      6.351098  1
      0.043533      6.330398  1
      0.058044      6.302598  1
      0.072556      6.268798  1
      0.087067      6.230098  1
      0.101578      6.187698  1
      0.116089      6.142698  1
      0.130600      6.096198  1
      0.145111      6.048898  1
      0.159622      6.001898  1
      0.174133      5.955698  1
      0.188645      5.911098  1
      0.203156      5.868498  1
      0.217667      5.828498  1
      0.232178      5.791398  1
      0.246689      5.757598  1
      0.261200      5.727098  1
      0.275711      5.700198  1
      0.290222      5.676898  1
      0.304734      5.657098  1
      0.319245      5.640698  1
      0.333756      5.627398  1
      0.348267      5.616798  1
      0.362778      5.608398  1
      0.377289      5.601798  1
      0.391800      5.596398  1
      0.406311      5.591598  1
      0.420823      5.586698  1
      0.435334      5.586598  1
      0.449845      5.616798  1
      0.464356      5.645398  1
      0.478867      5.669798  1
      0.493378      5.686098  1
      0.507889      5.689798  1
      0.532621      5.677098  1
      0.557353      5.651698  1
      0.582085      5.603298  1
      0.606817      5.583398  1
      0.631548      5.627598  1
      0.656280      5.684098  1
      0.681012      5.751098  1
      0.705744      5.826398  1
      0.730476      5.906598  1
      0.755207      5.986998  1
      0.779939      6.061198  1
      0.804671      6.121698  1
      0.829403      6.161398  1
      0.854135      6.176098  1
      0.878867      6.166198  1
      0.903598      6.136298  1
      0.928330      6.092298  1
      0.953062      6.040098  1
      0.977794      5.983798  1
      1.002526      5.924098  1
      1.027257      5.844798  1
      1.051989      5.811898  1
      1.076721      5.756998  1
      1.101453      5.704298  1
      1.126185      5.654998  1
      1.150916      5.610598  1
      1.175648      5.572698  1
      1.200380      5.542898  1
      1.225112      5.522798  1
      1.249844      5.513498  1
      1.274575      5.546998  1
      1.299307      5.599798  1
      1.324039      5.664798  1
      1.348771      5.735998  1
      1.373503      5.684698  1
      1.405169      5.761498  1
      1.436834      5.707498  1
      1.468500      5.687198  1
      1.500166      5.700698  1
      1.531832      5.747198  1
      1.563498      5.824898  1
      1.595164      5.931098  1
      1.626829      6.024998  1
      1.658495      6.185498  1
      1.690161      6.084698  1
      1.721827      6.005298  1
      1.753493      5.948098  1
      1.785159      5.913598  1
      1.816825      5.902098  1
      1.848490      5.913598  1
      1.880156      5.948098  1
      1.911822      6.005298  1
      1.943488      6.084698  1
      1.975154      6.185498  1
      2.006820      6.024998  1
      2.038485      5.931098  1
      2.070151      5.824898  1
      2.101817      5.747198  1
      2.133483      5.700698  1
      2.165149      5.687198  1
      2.196815      5.707498  1
      2.228481      5.761498  1
      2.260146      5.684698  1
      2.291812      5.739798  1
      2.323478      5.854098  1
      2.355144      5.983398  1
      2.386810      6.117898  1
      2.418476      6.242098  1
      2.450141      6.333798  1
      2.481807      6.368298  1


      0.000000      6.640098  1
      0.014511      6.639598  1
      0.029022      6.635298  1
      0.043533      6.620198  1
      0.058044      6.589798  1
      0.072556      6.544698  1
      0.087067      6.488398  1
      0.101578      6.423998  1
      0.116089      6.355098  1
      0.130600      6.284698  1
      0.145111      6.215698  1
      0.159622      6.150498  1
      0.174133      6.091498  1
      0.188645      6.040898  1
      0.203156      6.000798  1
      0.217667      5.974298  1
      0.232178      5.964398  1
      0.246689      5.974498  1
      0.261200      6.006198  1
      0.275711      6.058498  1
      0.290222      6.127498  1
      0.304734      6.207898  1
      0.319245      6.294298  1
      0.333756      6.381698  1
      0.348267      6.465798  1
      0.362778      6.542198  1
      0.377289      6.606598  1
      0.391800      6.654898  1
      0.406311      6.683998  1
      0.420823      6.691698  1
      0.435334      6.678298  1
      0.449845      6.646098  1
      0.464356      6.599798  1
      0.478867      6.545698  1
      0.493378      6.491298  1
      0.507889      6.444398  1
      0.532621      6.343898  1
      0.557353      6.247598  1
      0.582085      6.174898  1
      0.606817      6.133898  1
      0.631548      6.118698  1
      0.656280      6.117298  1
      0.681012      6.121298  1
      0.705744      6.127998  1
      0.730476      6.140698  1
      0.755207      6.164798  1
      0.779939      6.203998  1
      0.804671      6.256698  1
      0.829403      6.313298  1
      0.854135      6.354298  1
      0.878867      6.355798  1
      0.903598      6.308598  1
      0.928330      6.225198  1
      0.953062      6.124398  1
      0.977794      6.020798  1
      1.002526      5.925998  1
      1.027257      5.868498  1
      1.051989      5.819898  1
      1.076721      5.946798  1
      1.101453      6.160098  1
      1.126185      6.381098  1
      1.150916      6.578098  1
      1.175648      6.722298  1
      1.200380      6.787198  1
      1.225112      6.761598  1
      1.249844      6.657098  1
      1.274575      6.498098  1
      1.299307      6.308098  1
      1.324039      6.105298  1
      1.348771      5.906798  1
